"# Channel 1"
"# Trace 2"
Frequency, Formatted Data, Formatted Data
+9.00000000000E+003, +5.70275310799E+000, +0.00000000000E+000
+9.06161890229E+003, +5.74888512682E+000, +0.00000000000E+000
+9.12323780458E+003, +5.79109179434E+000, +0.00000000000E+000
+9.18485670688E+003, +5.82838267220E+000, +0.00000000000E+000
+9.24647560917E+003, +5.86310319880E+000, +0.00000000000E+000
+9.30809451146E+003, +5.89701667294E+000, +0.00000000000E+000
+9.36971341375E+003, +5.92858827317E+000, +0.00000000000E+000
+9.43133231604E+003, +5.95532453321E+000, +0.00000000000E+000
+9.49295121833E+003, +5.98125265854E+000, +0.00000000000E+000
+9.55457012063E+003, +6.00765593351E+000, +0.00000000000E+000
+9.61618902292E+003, +6.02901978066E+000, +0.00000000000E+000
+9.67780792521E+003, +6.04866806646E+000, +0.00000000000E+000
+9.73942682750E+003, +6.06996845077E+000, +0.00000000000E+000
+9.80104572979E+003, +6.08750294057E+000, +0.00000000000E+000
+9.86266463209E+003, +6.10474561295E+000, +0.00000000000E+000
+9.92428353438E+003, +6.12028407579E+000, +0.00000000000E+000
+9.98590243667E+003, +6.13578721080E+000, +0.00000000000E+000
+1.00475213390E+004, +6.14868608799E+000, +0.00000000000E+000
+1.01091402413E+004, +6.16281800277E+000, +0.00000000000E+000
+1.01707591435E+004, +6.17389525953E+000, +0.00000000000E+000
+1.02323780458E+004, +6.18704861888E+000, +0.00000000000E+000
+1.02939969481E+004, +6.19675841916E+000, +0.00000000000E+000
+1.03556158504E+004, +6.20699355372E+000, +0.00000000000E+000
+1.04172347527E+004, +6.21822815867E+000, +0.00000000000E+000
+1.04788536550E+004, +6.22674090089E+000, +0.00000000000E+000
+1.05404725573E+004, +6.23486583456E+000, +0.00000000000E+000
+1.06020914596E+004, +6.24437837734E+000, +0.00000000000E+000
+1.06637103619E+004, +6.25337368280E+000, +0.00000000000E+000
+1.07253292642E+004, +6.26027290908E+000, +0.00000000000E+000
+1.07869481665E+004, +6.26742918957E+000, +0.00000000000E+000
+1.08485670688E+004, +6.27483278690E+000, +0.00000000000E+000
+1.09101859710E+004, +6.28250968668E+000, +0.00000000000E+000
+1.09718048733E+004, +6.28969065438E+000, +0.00000000000E+000
+1.10334237756E+004, +6.29579174721E+000, +0.00000000000E+000
+1.10950426779E+004, +6.30349589227E+000, +0.00000000000E+000
+1.11566615802E+004, +6.30972080362E+000, +0.00000000000E+000
+1.12182804825E+004, +6.31654081037E+000, +0.00000000000E+000
+1.12798993848E+004, +6.32114570718E+000, +0.00000000000E+000
+1.13415182871E+004, +6.32843113800E+000, +0.00000000000E+000
+1.14031371894E+004, +6.34563796330E+000, +0.00000000000E+000
+1.14647560917E+004, +6.34161633392E+000, +0.00000000000E+000
+1.15263749940E+004, +6.34772907133E+000, +0.00000000000E+000
+1.15879938963E+004, +6.35327605945E+000, +0.00000000000E+000
+1.16496127986E+004, +6.36080401342E+000, +0.00000000000E+000
+1.17112317008E+004, +6.36647621100E+000, +0.00000000000E+000
+1.17728506031E+004, +6.37183907069E+000, +0.00000000000E+000
+1.18344695054E+004, +6.37767609520E+000, +0.00000000000E+000
+1.18960884077E+004, +6.38450020369E+000, +0.00000000000E+000
+1.19577073100E+004, +6.39080716571E+000, +0.00000000000E+000
+1.20193262123E+004, +6.39670487437E+000, +0.00000000000E+000
+1.20809451146E+004, +6.40390746523E+000, +0.00000000000E+000
+1.21425640169E+004, +6.40944831264E+000, +0.00000000000E+000
+1.22041829192E+004, +6.41744828168E+000, +0.00000000000E+000
+1.22658018215E+004, +6.42389456627E+000, +0.00000000000E+000
+1.23274207238E+004, +6.42846999304E+000, +0.00000000000E+000
+1.23994493272E+004, +6.44155509096E+000, +0.00000000000E+000
+1.24843427112E+004, +6.44521488286E+000, +0.00000000000E+000
+1.25692360953E+004, +6.45652413413E+000, +0.00000000000E+000
+1.26541294794E+004, +6.46398373340E+000, +0.00000000000E+000
+1.27390228634E+004, +6.47481649377E+000, +0.00000000000E+000
+1.28239162475E+004, +6.48400395526E+000, +0.00000000000E+000
+1.29088096316E+004, +6.49273118890E+000, +0.00000000000E+000
+1.29937030156E+004, +6.50282142522E+000, +0.00000000000E+000
+1.30785963997E+004, +6.51378258094E+000, +0.00000000000E+000
+1.31634897837E+004, +6.52477046206E+000, +0.00000000000E+000
+1.32483831678E+004, +6.53567646149E+000, +0.00000000000E+000
+1.33332765519E+004, +6.54481524916E+000, +0.00000000000E+000
+1.34181699359E+004, +6.55682650779E+000, +0.00000000000E+000
+1.35030633200E+004, +6.56703887333E+000, +0.00000000000E+000
+1.35879567041E+004, +6.57841074839E+000, +0.00000000000E+000
+1.36728500881E+004, +6.59000928322E+000, +0.00000000000E+000
+1.37577434722E+004, +6.60093206762E+000, +0.00000000000E+000
+1.38426368563E+004, +6.61256499369E+000, +0.00000000000E+000
+1.39275302403E+004, +6.62389461811E+000, +0.00000000000E+000
+1.40124236244E+004, +6.63624492120E+000, +0.00000000000E+000
+1.40973170084E+004, +6.64880003473E+000, +0.00000000000E+000
+1.41822103925E+004, +6.65961639036E+000, +0.00000000000E+000
+1.42671037766E+004, +6.67204465625E+000, +0.00000000000E+000
+1.43519971606E+004, +6.68511550909E+000, +0.00000000000E+000
+1.44368905447E+004, +6.69717886010E+000, +0.00000000000E+000
+1.45217839288E+004, +6.71025756885E+000, +0.00000000000E+000
+1.46066773128E+004, +6.72233358868E+000, +0.00000000000E+000
+1.46915706969E+004, +6.73497407385E+000, +0.00000000000E+000
+1.47764640809E+004, +6.74852423034E+000, +0.00000000000E+000
+1.48613574650E+004, +6.76167015489E+000, +0.00000000000E+000
+1.49462508491E+004, +6.77436759822E+000, +0.00000000000E+000
+1.50311442331E+004, +6.78781669101E+000, +0.00000000000E+000
+1.51160376172E+004, +6.80285222837E+000, +0.00000000000E+000
+1.52009310013E+004, +6.81506843986E+000, +0.00000000000E+000
+1.52858243853E+004, +6.82973702264E+000, +0.00000000000E+000
+1.53707177694E+004, +6.84317756022E+000, +0.00000000000E+000
+1.54556111534E+004, +6.85774343110E+000, +0.00000000000E+000
+1.55405045375E+004, +6.87233069004E+000, +0.00000000000E+000
+1.56253979216E+004, +6.88642398502E+000, +0.00000000000E+000
+1.57102913056E+004, +6.89946622671E+000, +0.00000000000E+000
+1.57951846897E+004, +6.91485149392E+000, +0.00000000000E+000
+1.58800780738E+004, +6.92856837013E+000, +0.00000000000E+000
+1.59649714578E+004, +6.94329041735E+000, +0.00000000000E+000
+1.60498648419E+004, +6.95856664682E+000, +0.00000000000E+000
+1.61347582259E+004, +6.97336891136E+000, +0.00000000000E+000
+1.62196516100E+004, +6.98907761765E+000, +0.00000000000E+000
+1.63045449941E+004, +7.00400624152E+000, +0.00000000000E+000
+1.63894383781E+004, +7.02055409990E+000, +0.00000000000E+000
+1.64743317622E+004, +7.03537546762E+000, +0.00000000000E+000
+1.65592251463E+004, +7.04940956119E+000, +0.00000000000E+000
+1.66441185303E+004, +7.06511236672E+000, +0.00000000000E+000
+1.67290119144E+004, +7.08186333737E+000, +0.00000000000E+000
+1.68139052984E+004, +7.09601363850E+000, +0.00000000000E+000
+1.68987986825E+004, +7.11285745051E+000, +0.00000000000E+000
+1.69836920666E+004, +7.12811182962E+000, +0.00000000000E+000
+1.70829270686E+004, +7.14625287344E+000, +0.00000000000E+000
+1.72002453412E+004, +7.16916286902E+000, +0.00000000000E+000
+1.73175636138E+004, +7.19186151329E+000, +0.00000000000E+000
+1.74348818864E+004, +7.21485048076E+000, +0.00000000000E+000
+1.75522001589E+004, +7.23699720411E+000, +0.00000000000E+000
+1.76695184315E+004, +7.25800190646E+000, +0.00000000000E+000
+1.77868367041E+004, +7.28327094808E+000, +0.00000000000E+000
+1.79041549767E+004, +7.30501889417E+000, +0.00000000000E+000
+1.80214732493E+004, +7.32886888440E+000, +0.00000000000E+000
+1.81387915219E+004, +7.35073681384E+000, +0.00000000000E+000
+1.82561097945E+004, +7.37469272600E+000, +0.00000000000E+000
+1.83734280670E+004, +7.39821931895E+000, +0.00000000000E+000
+1.84907463396E+004, +7.42283432274E+000, +0.00000000000E+000
+1.86080646122E+004, +7.44603553587E+000, +0.00000000000E+000
+1.87253828848E+004, +7.47030660679E+000, +0.00000000000E+000
+1.88427011574E+004, +7.49383574936E+000, +0.00000000000E+000
+1.89600194300E+004, +7.51863630142E+000, +0.00000000000E+000
+1.90773377026E+004, +7.54346042696E+000, +0.00000000000E+000
+1.91946559751E+004, +7.56727666706E+000, +0.00000000000E+000
+1.93119742477E+004, +7.59249350133E+000, +0.00000000000E+000
+1.94292925203E+004, +7.61715249543E+000, +0.00000000000E+000
+1.95466107929E+004, +7.64227468393E+000, +0.00000000000E+000
+1.96639290655E+004, +7.66544527079E+000, +0.00000000000E+000
+1.97812473381E+004, +7.69244743943E+000, +0.00000000000E+000
+1.98985656106E+004, +7.71719130131E+000, +0.00000000000E+000
+2.00158838832E+004, +7.74153591574E+000, +0.00000000000E+000
+2.01332021558E+004, +7.76740381118E+000, +0.00000000000E+000
+2.02505204284E+004, +7.79205029788E+000, +0.00000000000E+000
+2.03678387010E+004, +7.81758286066E+000, +0.00000000000E+000
+2.04851569736E+004, +7.84314298390E+000, +0.00000000000E+000
+2.06024752462E+004, +7.87025466791E+000, +0.00000000000E+000
+2.07197935187E+004, +7.89441907019E+000, +0.00000000000E+000
+2.08371117913E+004, +7.92054903901E+000, +0.00000000000E+000
+2.09544300639E+004, +7.94646270554E+000, +0.00000000000E+000
+2.10717483365E+004, +7.97210455256E+000, +0.00000000000E+000
+2.11890666091E+004, +7.99819162574E+000, +0.00000000000E+000
+2.13063848817E+004, +8.02453510630E+000, +0.00000000000E+000
+2.14237031543E+004, +8.05014605834E+000, +0.00000000000E+000
+2.15410214268E+004, +8.07762653481E+000, +0.00000000000E+000
+2.16583396994E+004, +8.10421511242E+000, +0.00000000000E+000
+2.17756579720E+004, +8.13002292220E+000, +0.00000000000E+000
+2.18929762446E+004, +8.15655764020E+000, +0.00000000000E+000
+2.20102945172E+004, +8.18265373355E+000, +0.00000000000E+000
+2.21276127898E+004, +8.20893610303E+000, +0.00000000000E+000
+2.22449310624E+004, +8.23611017416E+000, +0.00000000000E+000
+2.23622493349E+004, +8.26285446615E+000, +0.00000000000E+000
+2.24795676075E+004, +8.28846552478E+000, +0.00000000000E+000
+2.25968858801E+004, +8.31633017912E+000, +0.00000000000E+000
+2.27142041527E+004, +8.34314117558E+000, +0.00000000000E+000
+2.28315224253E+004, +8.36968575014E+000, +0.00000000000E+000
+2.29488406979E+004, +8.39756016510E+000, +0.00000000000E+000
+2.30661589705E+004, +8.42383598708E+000, +0.00000000000E+000
+2.31834772430E+004, +8.45029663849E+000, +0.00000000000E+000
+2.33007955156E+004, +8.47865521846E+000, +0.00000000000E+000
+2.34181137882E+004, +8.50499283422E+000, +0.00000000000E+000
+2.35354320608E+004, +8.53243621958E+000, +0.00000000000E+000
+2.36729486054E+004, +8.56464076262E+000, +0.00000000000E+000
+2.38350265062E+004, +8.60309415077E+000, +0.00000000000E+000
+2.39971044070E+004, +8.63997945876E+000, +0.00000000000E+000
+2.41591823078E+004, +8.67958687127E+000, +0.00000000000E+000
+2.43212602086E+004, +8.71733085619E+000, +0.00000000000E+000
+2.44833381094E+004, +8.75495790119E+000, +0.00000000000E+000
+2.46454160102E+004, +8.79349905481E+000, +0.00000000000E+000
+2.48074939109E+004, +8.83123568101E+000, +0.00000000000E+000
+2.49695718117E+004, +8.86998338045E+000, +0.00000000000E+000
+2.51316497125E+004, +8.90877811338E+000, +0.00000000000E+000
+2.52937276133E+004, +8.94804173410E+000, +0.00000000000E+000
+2.54558055141E+004, +8.98591149960E+000, +0.00000000000E+000
+2.56178834149E+004, +9.02509028596E+000, +0.00000000000E+000
+2.57799613157E+004, +9.06377479361E+000, +0.00000000000E+000
+2.59420392164E+004, +9.10235954408E+000, +0.00000000000E+000
+2.61041171172E+004, +9.14233876802E+000, +0.00000000000E+000
+2.62661950180E+004, +9.18034662109E+000, +0.00000000000E+000
+2.64282729188E+004, +9.21988225172E+000, +0.00000000000E+000
+2.65903508196E+004, +9.25961406534E+000, +0.00000000000E+000
+2.67524287204E+004, +9.29748700765E+000, +0.00000000000E+000
+2.69145066212E+004, +9.33709663724E+000, +0.00000000000E+000
+2.70765845220E+004, +9.37541495624E+000, +0.00000000000E+000
+2.72386624227E+004, +9.41580044437E+000, +0.00000000000E+000
+2.74007403235E+004, +9.45523008939E+000, +0.00000000000E+000
+2.75628182243E+004, +9.49397641188E+000, +0.00000000000E+000
+2.77248961251E+004, +9.53400965674E+000, +0.00000000000E+000
+2.78869740259E+004, +9.57412778852E+000, +0.00000000000E+000
+2.80490519267E+004, +9.61369711526E+000, +0.00000000000E+000
+2.82111298275E+004, +9.65370761907E+000, +0.00000000000E+000
+2.83732077282E+004, +9.69253693619E+000, +0.00000000000E+000
+2.85352856290E+004, +9.73230297698E+000, +0.00000000000E+000
+2.86973635298E+004, +9.77122544963E+000, +0.00000000000E+000
+2.88594414306E+004, +9.81129255234E+000, +0.00000000000E+000
+2.90215193314E+004, +9.85162534962E+000, +0.00000000000E+000
+2.91835972322E+004, +9.89081236360E+000, +0.00000000000E+000
+2.93456751330E+004, +9.93056040416E+000, +0.00000000000E+000
+2.95077530338E+004, +9.97120331226E+000, +0.00000000000E+000
+2.96698309345E+004, +1.00102477514E+001, +0.00000000000E+000
+2.98319088353E+004, +1.00512805171E+001, +0.00000000000E+000
+2.99939867361E+004, +1.00908805539E+001, +0.00000000000E+000
+3.01560646369E+004, +1.01309033759E+001, +0.00000000000E+000
+3.03181425377E+004, +1.01700051817E+001, +0.00000000000E+000
+3.04802204385E+004, +1.02115550337E+001, +0.00000000000E+000
+3.06422983393E+004, +1.02524845946E+001, +0.00000000000E+000
+3.08043762400E+004, +1.02912598007E+001, +0.00000000000E+000
+3.09664541408E+004, +1.03326974821E+001, +0.00000000000E+000
+3.11285320416E+004, +1.03719657194E+001, +0.00000000000E+000
+3.12906099424E+004, +1.04124310215E+001, +0.00000000000E+000
+3.14526878432E+004, +1.04524874891E+001, +0.00000000000E+000
+3.16147657440E+004, +1.04927369544E+001, +0.00000000000E+000
+3.17768436448E+004, +1.05327425318E+001, +0.00000000000E+000
+3.19389215456E+004, +1.05737220416E+001, +0.00000000000E+000
+3.21009994463E+004, +1.06136223157E+001, +0.00000000000E+000
+3.22630773471E+004, +1.06550027191E+001, +0.00000000000E+000
+3.24251552479E+004, +1.06947860710E+001, +0.00000000000E+000
+3.26146140731E+004, +1.07411860893E+001, +0.00000000000E+000
+3.28379114862E+004, +1.07974869056E+001, +0.00000000000E+000
+3.30612088993E+004, +1.08524245666E+001, +0.00000000000E+000
+3.32845063124E+004, +1.09101382850E+001, +0.00000000000E+000
+3.35078037255E+004, +1.09648476124E+001, +0.00000000000E+000
+3.37311011386E+004, +1.10207445929E+001, +0.00000000000E+000
+3.39543985517E+004, +1.10768027091E+001, +0.00000000000E+000
+3.41776959648E+004, +1.11326169581E+001, +0.00000000000E+000
+3.44009933779E+004, +1.11882867475E+001, +0.00000000000E+000
+3.46242907910E+004, +1.12440727900E+001, +0.00000000000E+000
+3.48475882041E+004, +1.12991335479E+001, +0.00000000000E+000
+3.50708856172E+004, +1.13560654287E+001, +0.00000000000E+000
+3.52941830303E+004, +1.14113731700E+001, +0.00000000000E+000
+3.55174804434E+004, +1.14665683651E+001, +0.00000000000E+000
+3.57407778565E+004, +1.15228049521E+001, +0.00000000000E+000
+3.59640752696E+004, +1.15792197720E+001, +0.00000000000E+000
+3.61873726827E+004, +1.16361070921E+001, +0.00000000000E+000
+3.64106700958E+004, +1.16907830376E+001, +0.00000000000E+000
+3.66339675088E+004, +1.17474820859E+001, +0.00000000000E+000
+3.68572649219E+004, +1.18033267110E+001, +0.00000000000E+000
+3.70805623350E+004, +1.18600051214E+001, +0.00000000000E+000
+3.73038597481E+004, +1.19156358682E+001, +0.00000000000E+000
+3.75271571612E+004, +1.19713843079E+001, +0.00000000000E+000
+3.77504545743E+004, +1.20280296186E+001, +0.00000000000E+000
+3.79737519874E+004, +1.20826706108E+001, +0.00000000000E+000
+3.81970494005E+004, +1.21391384090E+001, +0.00000000000E+000
+3.84203468136E+004, +1.21951013955E+001, +0.00000000000E+000
+3.86436442267E+004, +1.22501677766E+001, +0.00000000000E+000
+3.88669416398E+004, +1.23065047967E+001, +0.00000000000E+000
+3.90902390529E+004, +1.23633061478E+001, +0.00000000000E+000
+3.93135364660E+004, +1.24200391492E+001, +0.00000000000E+000
+3.95368338791E+004, +1.24748660798E+001, +0.00000000000E+000
+3.97601312922E+004, +1.25302932217E+001, +0.00000000000E+000
+3.99834287053E+004, +1.25854567928E+001, +0.00000000000E+000
+4.02067261184E+004, +1.26425624143E+001, +0.00000000000E+000
+4.04300235315E+004, +1.26983342119E+001, +0.00000000000E+000
+4.06533209446E+004, +1.27539957162E+001, +0.00000000000E+000
+4.08766183577E+004, +1.28106799728E+001, +0.00000000000E+000
+4.10999157708E+004, +1.28664859394E+001, +0.00000000000E+000
+4.13232131839E+004, +1.29217220318E+001, +0.00000000000E+000
+4.15465105969E+004, +1.29779502259E+001, +0.00000000000E+000
+4.17698080100E+004, +1.30328781804E+001, +0.00000000000E+000
+4.19931054231E+004, +1.30893165887E+001, +0.00000000000E+000
+4.22164028362E+004, +1.31438689822E+001, +0.00000000000E+000
+4.24397002493E+004, +1.32000136748E+001, +0.00000000000E+000
+4.26629976624E+004, +1.32558410818E+001, +0.00000000000E+000
+4.28862950755E+004, +1.33108794400E+001, +0.00000000000E+000
+4.31095924886E+004, +1.33664750663E+001, +0.00000000000E+000
+4.33328899017E+004, +1.34234600382E+001, +0.00000000000E+000
+4.35561873148E+004, +1.34781890848E+001, +0.00000000000E+000
+4.37794847279E+004, +1.35335212546E+001, +0.00000000000E+000
+4.40027821410E+004, +1.35888277993E+001, +0.00000000000E+000
+4.42260795541E+004, +1.36441444446E+001, +0.00000000000E+000
+4.44493769672E+004, +1.36994677040E+001, +0.00000000000E+000
+4.46726743803E+004, +1.37559592070E+001, +0.00000000000E+000
+4.49336949473E+004, +1.38189404503E+001, +0.00000000000E+000
+4.52413354982E+004, +1.38960123070E+001, +0.00000000000E+000
+4.55489760492E+004, +1.39723963661E+001, +0.00000000000E+000
+4.58566166001E+004, +1.40485299482E+001, +0.00000000000E+000
+4.61642571511E+004, +1.41245535368E+001, +0.00000000000E+000
+4.64718977020E+004, +1.42008349721E+001, +0.00000000000E+000
+4.67795382530E+004, +1.42766580393E+001, +0.00000000000E+000
+4.70871788039E+004, +1.43522167089E+001, +0.00000000000E+000
+4.73948193549E+004, +1.44289691737E+001, +0.00000000000E+000
+4.77024599058E+004, +1.45041970445E+001, +0.00000000000E+000
+4.80101004568E+004, +1.45794643524E+001, +0.00000000000E+000
+4.83177410077E+004, +1.46556612647E+001, +0.00000000000E+000
+4.86253815587E+004, +1.47311392773E+001, +0.00000000000E+000
+4.89330221097E+004, +1.48056361191E+001, +0.00000000000E+000
+4.92406626606E+004, +1.48814295274E+001, +0.00000000000E+000
+4.95483032116E+004, +1.49567872656E+001, +0.00000000000E+000
+4.98559437625E+004, +1.50331924143E+001, +0.00000000000E+000
+5.01635843135E+004, +1.51080303745E+001, +0.00000000000E+000
+5.04712248644E+004, +1.51821169716E+001, +0.00000000000E+000
+5.07788654154E+004, +1.52571379605E+001, +0.00000000000E+000
+5.10865059663E+004, +1.53318522838E+001, +0.00000000000E+000
+5.13941465173E+004, +1.54061553511E+001, +0.00000000000E+000
+5.17017870682E+004, +1.54819316619E+001, +0.00000000000E+000
+5.20094276192E+004, +1.55563109715E+001, +0.00000000000E+000
+5.23170681701E+004, +1.56308207442E+001, +0.00000000000E+000
+5.26247087211E+004, +1.57057261044E+001, +0.00000000000E+000
+5.29323492720E+004, +1.57804376521E+001, +0.00000000000E+000
+5.32399898230E+004, +1.58535228799E+001, +0.00000000000E+000
+5.35476303739E+004, +1.59281582149E+001, +0.00000000000E+000
+5.38552709249E+004, +1.60026553076E+001, +0.00000000000E+000
+5.41629114758E+004, +1.60764914838E+001, +0.00000000000E+000
+5.44705520268E+004, +1.61501756818E+001, +0.00000000000E+000
+5.47781925777E+004, +1.62244797161E+001, +0.00000000000E+000
+5.50858331287E+004, +1.62987126248E+001, +0.00000000000E+000
+5.53934736796E+004, +1.63720660405E+001, +0.00000000000E+000
+5.57011142306E+004, +1.64458297094E+001, +0.00000000000E+000
+5.60087547816E+004, +1.65204350365E+001, +0.00000000000E+000
+5.63163953325E+004, +1.65926538994E+001, +0.00000000000E+000
+5.66240358835E+004, +1.66652578944E+001, +0.00000000000E+000
+5.69316764344E+004, +1.67394674962E+001, +0.00000000000E+000
+5.72393169854E+004, +1.68130529685E+001, +0.00000000000E+000
+5.75469575363E+004, +1.68846741788E+001, +0.00000000000E+000
+5.78545980873E+004, +1.69582409988E+001, +0.00000000000E+000
+5.81622386382E+004, +1.70295890534E+001, +0.00000000000E+000
+5.84698791892E+004, +1.71024164003E+001, +0.00000000000E+000
